T          	Er(t)      	Ephi(t)    	Ez(t)      	Hr(t)      	Hphi(t)    	Hz(t)      	Jr(t)      	Jphi(t)    	Jz(t)      
0          	0          	0          	0          	0          	0          	0          	0.502395   	-0.502395  	0          	
0.0096     	0          	1.58532e-015	0          	0          	0          	7.92661e-016	0.498513   	-0.498513  	0          	
0.0192     	2.5244e-018	6.32638e-015	0          	0          	0          	3.75641e-015	0.494638   	-0.494638  	0          	
0.0288     	1.44875e-017	1.57773e-014	0          	0          	0          	1.05503e-014	0.490769   	-0.490769  	0          	
0.0384     	4.80873e-017	3.14759e-014	0          	0          	0          	2.28501e-014	0.486907   	-0.486907  	0          	
0.048      	1.20858e-016	5.49449e-014	0          	0          	0          	4.2218e-014	0.483052   	-0.483052  	0          	
0.0576     	2.5531e-016	8.76923e-014	0          	0          	0          	7.01105e-014	0.479205   	-0.479205  	0          	
0.0672     	4.78592e-016	1.31211e-013	0          	0          	0          	1.07952e-013	0.475364   	-0.475364  	0          	
0.0768     	8.22387e-016	1.86978e-013	0          	0          	0          	1.57191e-013	0.471531   	-0.471531  	0          	
0.0864     	1.32299e-015	2.56453e-013	0          	0          	0          	2.19304e-013	0.467705   	-0.467705  	0          	
0.096      	2.02142e-015	3.41079e-013	0          	0          	0          	2.95758e-013	0.463887   	-0.463887  	0          	
0.1056     	2.96332e-015	4.42285e-013	0          	0          	0          	3.87975e-013	0.460077   	-0.460076  	0          	
0.1152     	4.19891e-015	5.61481e-013	0          	0          	0          	4.97327e-013	0.456275   	-0.456273  	0          	
0.1248     	5.78275e-015	7.00062e-013	0          	0          	0          	6.25164e-013	0.45248    	-0.452478  	0          	
0.1344     	7.77372e-015	8.59407e-013	0          	0          	0          	7.72835e-013	0.448694   	-0.448692  	0          	
0.144      	1.0235e-014	1.04088e-012	0          	0          	0          	9.41691e-013	0.444916   	-0.444913  	0          	
0.1536     	1.3234e-014	1.24581e-012	0          	0          	0          	1.13307e-012	0.441147   	-0.441142  	0          	
0.1632     	1.68425e-014	1.47554e-012	0          	0          	0          	1.34826e-012	0.437386   	-0.43738   	0          	
0.1728     	2.11363e-014	1.73138e-012	0          	0          	0          	1.58854e-012	0.433634   	-0.433627  	0          	
0.1824     	2.61954e-014	2.01461e-012	0          	0          	0          	1.85516e-012	0.429891   	-0.429882  	0          	
0.192      	3.21035e-014	2.32651e-012	0          	0          	0          	2.14934e-012	0.426156   	-0.426146  	0          	
0.2016     	3.89485e-014	2.66833e-012	0          	0          	0          	2.47232e-012	0.422431   	-0.422418  	0          	
0.2112     	4.68221e-014	3.04133e-012	0          	0          	0          	2.8253e-012	0.418715   	-0.4187    	0          	
0.2208     	5.58199e-014	3.4467e-012	0          	0          	0          	3.20947e-012	0.415008   	-0.41499   	0          	
0.2304     	6.60412e-014	3.88566e-012	0          	0          	0          	3.62598e-012	0.411311   	-0.41129   	0          	
0.24       	7.75889e-014	4.3594e-012	0          	0          	0          	4.07596e-012	0.407624   	-0.407599  	0          	
0.2496     	9.05696e-014	4.86907e-012	0          	0          	0          	4.56053e-012	0.403946   	-0.403917  	0          	
0.2592     	1.05094e-013	5.41582e-012	0          	0          	0          	5.08078e-012	0.400278   	-0.400245  	0          	
0.2688     	1.21274e-013	6.00079e-012	0          	0          	0          	5.63782e-012	0.39662    	-0.396582  	0          	
0.2784     	1.39229e-013	6.62508e-012	0          	0          	0          	6.23268e-012	0.392973   	-0.392929  	0          	
0.288      	1.59079e-013	7.28979e-012	0          	0          	0          	6.86642e-012	0.389335   	-0.389286  	0          	
0.2976     	1.80946e-013	7.99598e-012	0          	0          	0          	7.54003e-012	0.385709   	-0.385652  	0          	
0.3072     	2.04959e-013	8.7447e-012	0          	0          	0          	8.25451e-012	0.382092   	-0.382028  	0          	
0.3168     	2.31247e-013	9.537e-012 	0          	0          	0          	9.01084e-012	0.378487   	-0.378415  	0          	
0.3264     	2.59944e-013	1.03739e-011	0          	0          	0          	9.80997e-012	0.374892   	-0.374811  	0          	
0.336      	2.91186e-013	1.12563e-011	0          	0          	0          	1.06528e-011	0.371308   	-0.371218  	0          	
0.3456     	3.25112e-013	1.21854e-011	0          	0          	0          	1.15404e-011	0.367735   	-0.367635  	0          	
0.3552     	3.61865e-013	1.31619e-011	0          	0          	0          	1.24734e-011	0.364174   	-0.364063  	0          	
0.3648     	4.01589e-013	1.41869e-011	0          	0          	0          	1.34529e-011	0.360623   	-0.3605    	0          	
0.3744     	4.44433e-013	1.52612e-011	0          	0          	0          	1.44796e-011	0.357085   	-0.356949  	0          	
0.384      	4.90546e-013	1.63858e-011	0          	0          	0          	1.55544e-011	0.353557   	-0.353408  	0          	
0.3936     	5.40083e-013	1.75615e-011	0          	0          	0          	1.6678e-011	0.350042   	-0.349878  	0          	
0.4032     	5.93197e-013	1.87893e-011	0          	0          	0          	1.78514e-011	0.346538   	-0.346359  	0          	
0.4128     	6.50049e-013	2.00698e-011	0          	0          	0          	1.90751e-011	0.343047   	-0.34285   	0          	
0.4224     	7.10798e-013	2.1404e-011	0          	0          	0          	2.03501e-011	0.339567   	-0.339353  	0          	
0.432      	7.75607e-013	2.27926e-011	0          	0          	0          	2.16769e-011	0.3361     	-0.335867  	0          	
0.4416     	8.44641e-013	2.42364e-011	0          	0          	0          	2.30562e-011	0.332644   	-0.332391  	0          	
0.4512     	9.18069e-013	2.57362e-011	0          	0          	0          	2.44889e-011	0.329202   	-0.328927  	0          	
0.4608     	9.96059e-013	2.72926e-011	0          	0          	0          	2.59754e-011	0.325772   	-0.325475  	0          	
0.4704     	1.07878e-012	2.89065e-011	0          	0          	0          	2.75164e-011	0.322354   	-0.322034  	0          	
0.48       	1.16641e-012	3.05785e-011	0          	0          	0          	2.91126e-011	0.31895    	-0.318604  	0          	
0.4896     	1.25913e-012	3.23092e-011	0          	0          	0          	3.07646e-011	0.315558   	-0.315186  	0          	
0.4992     	1.35711e-012	3.40993e-011	0          	0          	0          	3.24728e-011	0.31218    	-0.311779  	0          	
0.5088     	1.46052e-012	3.59495e-011	0          	0          	0          	3.42378e-011	0.308814   	-0.308384  	0          	
0.5184     	1.56956e-012	3.78603e-011	0          	0          	0          	3.60602e-011	0.305462   	-0.305001  	0          	
0.528      	1.6844e-012	3.98324e-011	0          	0          	0          	3.79404e-011	0.302123   	-0.30163   	0          	
0.5376     	1.80523e-012	4.18662e-011	0          	0          	0          	3.98789e-011	0.298798   	-0.29827   	0          	
0.5472     	1.93223e-012	4.39623e-011	0          	0          	0          	4.18762e-011	0.295486   	-0.294923  	0          	
0.5568     	2.0656e-012	4.61213e-011	0          	0          	0          	4.39327e-011	0.292188   	-0.291587  	0          	
0.5664     	2.20551e-012	4.83437e-011	0          	0          	0          	4.60488e-011	0.288904   	-0.288264  	0          	
0.576      	2.35216e-012	5.06299e-011	0          	0          	0          	4.82249e-011	0.285634   	-0.284953  	0          	
0.5856     	2.50575e-012	5.29803e-011	0          	0          	0          	5.04613e-011	0.282378   	-0.281654  	0          	
0.5952     	2.66645e-012	5.53955e-011	0          	0          	0          	5.27584e-011	0.279136   	-0.278367  	0          	
0.6048     	2.83447e-012	5.78758e-011	0          	0          	0          	5.51166e-011	0.275908   	-0.275093  	0          	
0.6144     	3.01e-012  	6.04216e-011	0          	0          	0          	5.7536e-011	0.272695   	-0.271832  	0          	
0.624      	3.19324e-012	6.30332e-011	0          	0          	0          	6.00169e-011	0.269496   	-0.268582  	0          	
0.6336     	3.38437e-012	6.57111e-011	0          	0          	0          	6.25597e-011	0.266312   	-0.265346  	0          	
0.6432     	3.58361e-012	6.84556e-011	0          	0          	0          	6.51646e-011	0.263142   	-0.262121  	0          	
0.6528     	3.79114e-012	7.12669e-011	0          	0          	0          	6.78316e-011	0.259988   	-0.25891   	0          	
0.6624     	4.00716e-012	7.41453e-011	0          	0          	0          	7.05611e-011	0.256848   	-0.255711  	0          	
0.672      	4.23188e-012	7.70911e-011	0          	0          	0          	7.33532e-011	0.253723   	-0.252525  	0          	
0.6816     	4.46549e-012	8.01045e-011	0          	0          	0          	7.6208e-011	0.250613   	-0.249352  	0          	
0.6912     	4.70819e-012	8.31857e-011	0          	0          	0          	7.91256e-011	0.247518   	-0.246192  	0          	
0.7008     	4.96018e-012	8.6335e-011	0          	0          	0          	8.21061e-011	0.244438   	-0.243045  	0          	
0.7104     	5.22167e-012	8.95524e-011	0          	0          	0          	8.51496e-011	0.241374   	-0.239911  	0          	
0.72       	5.49284e-012	9.28381e-011	0          	0          	0          	8.82562e-011	0.238326   	-0.23679   	0          	
0.7296     	5.77391e-012	9.61923e-011	0          	0          	0          	9.14257e-011	0.235292   	-0.233681  	0          	
0.7392     	6.06508e-012	9.96151e-011	0          	0          	0          	9.46584e-011	0.232275   	-0.230587  	0          	
0.7488     	6.36654e-012	1.03106e-010	0          	0          	0          	9.7954e-011	0.229273   	-0.227505  	0          	
0.7584     	6.67849e-012	1.06666e-010	0          	0          	0          	1.01313e-010	0.226287   	-0.224437  	0          	
0.768      	7.00115e-012	1.10295e-010	0          	0          	0          	1.04734e-010	0.223317   	-0.221381  	0          	
0.7776     	7.33469e-012	1.13993e-010	0          	0          	0          	1.08218e-010	0.220362   	-0.21834   	0          	
0.7872     	7.67934e-012	1.17759e-010	0          	0          	0          	1.11766e-010	0.217424   	-0.215311  	0          	
0.7968     	8.03528e-012	1.21594e-010	0          	0          	0          	1.15375e-010	0.214502   	-0.212296  	0          	
0.8064     	8.40272e-012	1.25497e-010	0          	0          	0          	1.19047e-010	0.211596   	-0.209295  	0          	
0.816      	8.78185e-012	1.29469e-010	0          	0          	0          	1.22781e-010	0.208707   	-0.206307  	0          	
0.8256     	9.17287e-012	1.3351e-010	0          	0          	0          	1.26578e-010	0.205833   	-0.203333  	0          	
0.8352     	9.57598e-012	1.37618e-010	0          	0          	0          	1.30436e-010	0.202976   	-0.200372  	0          	
0.8448     	9.99138e-012	1.41795e-010	0          	0          	0          	1.34355e-010	0.200136   	-0.197425  	0          	
0.8544     	1.04193e-011	1.4604e-010	0          	0          	0          	1.38336e-010	0.197312   	-0.194491  	0          	
0.864      	1.08598e-011	1.50353e-010	0          	0          	0          	1.42378e-010	0.194505   	-0.191572  	0          	
0.8736     	1.13133e-011	1.54733e-010	0          	0          	0          	1.4648e-010	0.191714   	-0.188666  	0          	
0.8832     	1.17798e-011	1.59181e-010	0          	0          	0          	1.50643e-010	0.188941   	-0.185774  	0          	
0.8928     	1.22595e-011	1.63695e-010	0          	0          	0          	1.54866e-010	0.186184   	-0.182895  	0          	
0.9024     	1.27527e-011	1.68277e-010	0          	0          	0          	1.59148e-010	0.183444   	-0.180031  	0          	
0.912      	1.32596e-011	1.72925e-010	0          	0          	0          	1.6349e-010	0.18072    	-0.17718   	0          	
0.9216     	1.37802e-011	1.77639e-010	0          	0          	0          	1.6789e-010	0.178014   	-0.174344  	0          	
0.9312     	1.43149e-011	1.82419e-010	0          	0          	0          	1.72349e-010	0.175325   	-0.171521  	0          	
0.9408     	1.48638e-011	1.87264e-010	0          	0          	0          	1.76866e-010	0.172653   	-0.168713  	0          	
0.9504     	1.54271e-011	1.92175e-010	0          	0          	0          	1.81439e-010	0.169998   	-0.165918  	0          	
0.96       	1.60049e-011	1.9715e-010	0          	0          	0          	1.8607e-010	0.167361   	-0.163137  	0          	
0.9696     	1.65975e-011	2.02189e-010	0          	0          	0          	1.90757e-010	0.164741   	-0.160371  	0          	
0.9792     	1.7205e-011	2.07292e-010	0          	0          	0          	1.955e-010 	0.162138   	-0.157618  	0          	
0.9888     	1.78276e-011	2.12459e-010	0          	0          	0          	2.00298e-010	0.159552   	-0.15488   	0          	
0.9984     	1.84655e-011	2.17688e-010	0          	0          	0          	2.05151e-010	0.156984   	-0.152156  	0          	
1.008      	1.91188e-011	2.22979e-010	0          	0          	0          	2.10057e-010	0.154433   	-0.149446  	0          	
1.0176     	1.97878e-011	2.28332e-010	0          	0          	0          	2.15017e-010	0.1519     	-0.14675   	0          	
1.0272     	2.04726e-011	2.33747e-010	0          	0          	0          	2.2003e-010	0.149384   	-0.144069  	0          	
1.0368     	2.11733e-011	2.39222e-010	0          	0          	0          	2.25095e-010	0.146886   	-0.141401  	0          	
1.0464     	2.18902e-011	2.44757e-010	0          	0          	0          	2.30211e-010	0.144405   	-0.138748  	0          	
1.056      	2.26233e-011	2.50351e-010	0          	0          	0          	2.35377e-010	0.141943   	-0.136109  	0          	
1.0656     	2.33729e-011	2.56004e-010	0          	0          	0          	2.40594e-010	0.139497   	-0.133485  	0          	
1.0752     	2.41392e-011	2.61715e-010	0          	0          	0          	2.4586e-010	0.13707    	-0.130874  	0          	
1.0848     	2.49221e-011	2.67483e-010	0          	0          	0          	2.51174e-010	0.13466    	-0.128278  	0          	
1.0944     	2.57221e-011	2.73308e-010	0          	0          	0          	2.56535e-010	0.132268   	-0.125696  	0          	
1.104      	2.65391e-011	2.79189e-010	0          	0          	0          	2.61944e-010	0.129894   	-0.123129  	0          	
1.1136     	2.73733e-011	2.85125e-010	0          	0          	0          	2.67398e-010	0.127537   	-0.120576  	0          	
1.1232     	2.82249e-011	2.91115e-010	0          	0          	0          	2.72898e-010	0.125199   	-0.118037  	0          	
1.1328     	2.9094e-011	2.97159e-010	0          	0          	0          	2.78441e-010	0.122878   	-0.115513  	0          	
1.1424     	2.99807e-011	3.03256e-010	0          	0          	0          	2.84028e-010	0.120575   	-0.113003  	0          	
1.152      	3.08853e-011	3.09405e-010	0          	0          	0          	2.89658e-010	0.11829    	-0.110507  	0          	
1.1616     	3.18077e-011	3.15605e-010	0          	0          	0          	2.95329e-010	0.116023   	-0.108026  	0          	
1.1712     	3.27483e-011	3.21855e-010	0          	0          	0          	3.0104e-010	0.113774   	-0.105559  	0          	
1.1808     	3.3707e-011	3.28154e-010	0          	0          	0          	3.06792e-010	0.111543   	-0.103106  	0          	
1.1904     	3.4684e-011	3.34503e-010	0          	0          	0          	3.12581e-010	0.10933    	-0.100668  	0          	
1.2        	3.56795e-011	3.40898e-010	0          	0          	0          	3.18409e-010	0.107134   	-0.0982443 	0          	
1.2096     	3.66936e-011	3.4734e-010	0          	0          	0          	3.24273e-010	0.104957   	-0.0958348 	0          	
1.2192     	3.77263e-011	3.53829e-010	0          	0          	0          	3.30173e-010	0.102798   	-0.0934397 	0          	
1.2288     	3.87778e-011	3.60361e-010	0          	0          	0          	3.36107e-010	0.100656   	-0.0910589 	0          	
1.2384     	3.98482e-011	3.66938e-010	0          	0          	0          	3.42075e-010	0.0985326  	-0.0886924 	0          	
1.248      	4.09376e-011	3.73557e-010	0          	0          	0          	3.48075e-010	0.096427   	-0.0863403 	0          	
1.2576     	4.20461e-011	3.80218e-010	0          	0          	0          	3.54107e-010	0.0943394  	-0.0840025 	0          	
1.2672     	4.31739e-011	3.86919e-010	0          	0          	0          	3.60169e-010	0.0922698  	-0.081679  	0          	
1.2768     	4.43209e-011	3.9366e-010	0          	0          	0          	3.6626e-010	0.090218   	-0.0793699 	0          	
1.2864     	4.54873e-011	4.0044e-010	0          	0          	0          	3.7238e-010	0.0881842  	-0.077075  	0          	
1.296      	4.66732e-011	4.07257e-010	0          	0          	0          	3.78526e-010	0.0861683  	-0.0747944 	0          	
1.3056     	4.78787e-011	4.14111e-010	0          	0          	0          	3.84698e-010	0.0841703  	-0.0725282 	0          	
1.3152     	4.91039e-011	4.20999e-010	0          	0          	0          	3.90894e-010	0.0821902  	-0.0702762 	0          	
1.3248     	5.03488e-011	4.27922e-010	0          	0          	0          	3.97114e-010	0.080228   	-0.0680385 	0          	
1.3344     	5.16135e-011	4.34878e-010	0          	0          	0          	4.03357e-010	0.0782836  	-0.065815  	0          	
1.344      	5.28981e-011	4.41865e-010	0          	0          	0          	4.0962e-010	0.0763571  	-0.0636059 	0          	
1.3536     	5.42026e-011	4.48884e-010	0          	0          	0          	4.15903e-010	0.0744484  	-0.0614109 	0          	
1.3632     	5.55271e-011	4.55931e-010	0          	0          	0          	4.22204e-010	0.0725575  	-0.0592303 	0          	
1.3728     	5.68717e-011	4.63007e-010	0          	0          	0          	4.28523e-010	0.0706844  	-0.0570639 	0          	
1.3824     	5.82364e-011	4.7011e-010	0          	0          	0          	4.34858e-010	0.068829   	-0.0549117 	0          	
1.392      	5.96213e-011	4.77239e-010	0          	0          	0          	4.41208e-010	0.0669913  	-0.0527738 	0          	
1.4016     	6.10264e-011	4.84392e-010	0          	0          	0          	4.47571e-010	0.0651713  	-0.0506501 	0          	
1.4112     	6.24518e-011	4.91568e-010	0          	0          	0          	4.53946e-010	0.063369   	-0.0485406 	0          	
1.4208     	6.38975e-011	4.98767e-010	0          	0          	0          	4.60332e-010	0.0615843  	-0.0464454 	0          	
1.4304     	6.53636e-011	5.05986e-010	0          	0          	0          	4.66728e-010	0.0598173  	-0.0443643 	0          	
1.44       	6.68499e-011	5.13225e-010	0          	0          	0          	4.73133e-010	0.0580677  	-0.0422975 	0          	
1.4496     	6.83567e-011	5.20482e-010	0          	0          	0          	4.79544e-010	0.0563358  	-0.0402448 	0          	
1.4592     	6.9884e-011	5.27756e-010	0          	0          	0          	4.85961e-010	0.0546213  	-0.0382063 	0          	
1.4688     	7.14316e-011	5.35045e-010	0          	0          	0          	4.92382e-010	0.0529243  	-0.036182  	0          	
1.4784     	7.29997e-011	5.42348e-010	0          	0          	0          	4.98806e-010	0.0512447  	-0.0341719 	0          	
1.488      	7.45882e-011	5.49665e-010	0          	0          	0          	5.05232e-010	0.0495825  	-0.0321759 	0          	
1.4976     	7.61973e-011	5.56992e-010	0          	0          	0          	5.11658e-010	0.0479376  	-0.0301941 	0          	
1.5072     	7.78267e-011	5.64331e-010	0          	0          	0          	5.18082e-010	0.04631    	-0.0282265 	0          	
1.5168     	7.94767e-011	5.71677e-010	0          	0          	0          	5.24505e-010	0.0446996  	-0.026273  	0          	
1.5264     	8.11471e-011	5.79032e-010	0          	0          	0          	5.30923e-010	0.0431065  	-0.0243336 	0          	
