T          	Er(t)      	Ephi(t)    	Ez(t)      	Hr(t)      	Hphi(t)    	Hz(t)      	Jr(t)      	Jphi(t)    	Jz(t)      
0          	0          	0          	0          	0          	0          	0          	0.50252    	-0.50252   	0          	
0.0084     	0          	1.06104e-015	0          	0          	0          	5.30518e-016	0.499547   	-0.499547  	0          	
0.0168     	1.48189e-018	4.2363e-015	0          	0          	0          	2.51529e-015	0.496574   	-0.496574  	0          	
0.0252     	8.50785e-018	1.05703e-014	0          	0          	0          	7.06807e-015	0.493601   	-0.493601  	0          	
0.0336     	2.82511e-017	2.10991e-014	0          	0          	0          	1.53163e-014	0.490627   	-0.490627  	0          	
0.042      	7.10341e-017	3.68505e-014	0          	0          	0          	2.83145e-014	0.487654   	-0.487654  	0          	
0.0504     	1.50125e-016	5.88448e-014	0          	0          	0          	4.70483e-014	0.484681   	-0.484681  	0          	
0.0588     	2.81544e-016	8.80943e-014	0          	0          	0          	7.24841e-014	0.481707   	-0.481707  	0          	
0.0672     	4.84014e-016	1.25603e-013	0          	0          	0          	1.05608e-013	0.478735   	-0.478735  	0          	
0.0756     	7.79007e-016	1.72365e-013	0          	0          	0          	1.47425e-013	0.475762   	-0.475762  	0          	
0.084      	1.19081e-015	2.29368e-013	0          	0          	0          	1.98938e-013	0.472791   	-0.47279   	0          	
0.0924     	1.7465e-015	2.97587e-013	0          	0          	0          	2.6112e-013	0.469819   	-0.469819  	0          	
0.1008     	2.47589e-015	3.77993e-013	0          	0          	0          	3.34918e-013	0.466849   	-0.466848  	0          	
0.1092     	3.41141e-015	4.71546e-013	0          	0          	0          	4.21261e-013	0.46388    	-0.463878  	0          	
0.1176     	4.58812e-015	5.79197e-013	0          	0          	0          	5.21082e-013	0.460911   	-0.460909  	0          	
0.126      	6.04365e-015	7.01888e-013	0          	0          	0          	6.35319e-013	0.457944   	-0.457942  	0          	
0.1344     	7.81829e-015	8.40552e-013	0          	0          	0          	7.64898e-013	0.454978   	-0.454975  	0          	
0.1428     	9.95487e-015	9.96113e-013	0          	0          	0          	9.10729e-013	0.452013   	-0.452009  	0          	
0.1512     	1.24988e-014	1.16948e-012	0          	0          	0          	1.0737e-012	0.449049   	-0.449045  	0          	
0.1596     	1.5498e-014	1.36157e-012	0          	0          	0          	1.25469e-012	0.446088   	-0.446082  	0          	
0.168      	1.90027e-014	1.57327e-012	0          	0          	0          	1.45456e-012	0.443127   	-0.443121  	0          	
0.1764     	2.30657e-014	1.80547e-012	0          	0          	0          	1.67419e-012	0.440169   	-0.440161  	0          	
0.1848     	2.77422e-014	2.05904e-012	0          	0          	0          	1.91443e-012	0.437213   	-0.437203  	0          	
0.1932     	3.30898e-014	2.33486e-012	0          	0          	0          	2.17614e-012	0.434258   	-0.434247  	0          	
0.2016     	3.91684e-014	2.63377e-012	0          	0          	0          	2.46012e-012	0.431306   	-0.431293  	0          	
0.21       	4.60402e-014	2.95663e-012	0          	0          	0          	2.76721e-012	0.428356   	-0.428341  	0          	
0.2184     	5.37698e-014	3.30427e-012	0          	0          	0          	3.0982e-012	0.425408   	-0.425391  	0          	
0.2268     	6.2424e-014	3.67752e-012	0          	0          	0          	3.4539e-012	0.422463   	-0.422443  	0          	
0.2352     	7.20718e-014	4.07719e-012	0          	0          	0          	3.83509e-012	0.41952    	-0.419497  	0          	
0.2436     	8.27843e-014	4.5041e-012	0          	0          	0          	4.24256e-012	0.41658    	-0.416554  	0          	
0.252      	9.4635e-014	4.95904e-012	0          	0          	0          	4.67705e-012	0.413643   	-0.413613  	0          	
0.2604     	1.07699e-013	5.4428e-012	0          	0          	0          	5.13933e-012	0.410708   	-0.410674  	0          	
0.2688     	1.22055e-013	5.95615e-012	0          	0          	0          	5.63013e-012	0.407777   	-0.407739  	0          	
0.2772     	1.37782e-013	6.49986e-012	0          	0          	0          	6.15018e-012	0.404849   	-0.404806  	0          	
0.2856     	1.54961e-013	7.07468e-012	0          	0          	0          	6.7002e-012	0.401924   	-0.401875  	0          	
0.294      	1.73677e-013	7.68136e-012	0          	0          	0          	7.28089e-012	0.399003   	-0.398948  	0          	
0.3024     	1.94014e-013	8.32063e-012	0          	0          	0          	7.89296e-012	0.396085   	-0.396024  	0          	
0.3108     	2.16062e-013	8.99321e-012	0          	0          	0          	8.53707e-012	0.39317    	-0.393103  	0          	
0.3192     	2.39908e-013	9.69982e-012	0          	0          	0          	9.2139e-012	0.390259   	-0.390185  	0          	
0.3276     	2.65645e-013	1.04412e-011	0          	0          	0          	9.92411e-012	0.387353   	-0.38727   	0          	
0.336      	2.93366e-013	1.12179e-011	0          	0          	0          	1.06683e-011	0.38445    	-0.384359  	0          	
0.3444     	3.23166e-013	1.20307e-011	0          	0          	0          	1.14472e-011	0.381551   	-0.381451  	0          	
0.3528     	3.55142e-013	1.28804e-011	0          	0          	0          	1.22614e-011	0.378656   	-0.378546  	0          	
0.3612     	3.89392e-013	1.37674e-011	0          	0          	0          	1.31115e-011	0.375765   	-0.375645  	0          	
0.3696     	4.26016e-013	1.46925e-011	0          	0          	0          	1.3998e-011	0.372879   	-0.372748  	0          	
0.378      	4.65116e-013	1.56563e-011	0          	0          	0          	1.49217e-011	0.369997   	-0.369855  	0          	
0.3864     	5.06797e-013	1.66594e-011	0          	0          	0          	1.58829e-011	0.36712    	-0.366965  	0          	
0.3948     	5.51163e-013	1.77024e-011	0          	0          	0          	1.68824e-011	0.364248   	-0.36408   	0          	
0.4032     	5.9832e-013	1.8786e-011	0          	0          	0          	1.79207e-011	0.36138    	-0.361198  	0          	
0.4116     	6.48378e-013	1.99107e-011	0          	0          	0          	1.89982e-011	0.358517   	-0.35832   	0          	
0.42       	7.01446e-013	2.10771e-011	0          	0          	0          	2.01155e-011	0.35566    	-0.355447  	0          	
0.4284     	7.57634e-013	2.22858e-011	0          	0          	0          	2.12732e-011	0.352807   	-0.352578  	0          	
0.4368     	8.17057e-013	2.35372e-011	0          	0          	0          	2.24717e-011	0.34996    	-0.349713  	0          	
0.4452     	8.79827e-013	2.48321e-011	0          	0          	0          	2.37115e-011	0.347118   	-0.346853  	0          	
0.4536     	9.4606e-013	2.61708e-011	0          	0          	0          	2.49932e-011	0.344281   	-0.343997  	0          	
0.462      	1.01587e-012	2.75539e-011	0          	0          	0          	2.6317e-011	0.34145    	-0.341146  	0          	
0.4704     	1.08938e-012	2.8982e-011	0          	0          	0          	2.76836e-011	0.338625   	-0.338299  	0          	
0.4788     	1.16671e-012	3.04554e-011	0          	0          	0          	2.90932e-011	0.335806   	-0.335457  	0          	
0.4872     	1.24798e-012	3.19747e-011	0          	0          	0          	3.05465e-011	0.332992   	-0.33262   	0          	
0.4956     	1.3333e-012	3.35404e-011	0          	0          	0          	3.20437e-011	0.330185   	-0.329788  	0          	
0.504      	1.42281e-012	3.51529e-011	0          	0          	0          	3.35853e-011	0.327383   	-0.32696   	0          	
0.5124     	1.51663e-012	3.68126e-011	0          	0          	0          	3.51716e-011	0.324588   	-0.324138  	0          	
0.5208     	1.61487e-012	3.852e-011 	0          	0          	0          	3.6803e-011	0.321799   	-0.321321  	0          	
0.5292     	1.71767e-012	4.02756e-011	0          	0          	0          	3.84799e-011	0.319016   	-0.318509  	0          	
0.5376     	1.82516e-012	4.20796e-011	0          	0          	0          	4.02026e-011	0.31624    	-0.315702  	0          	
0.546      	1.93746e-012	4.39326e-011	0          	0          	0          	4.19715e-011	0.313471   	-0.3129    	0          	
0.5544     	2.05469e-012	4.58348e-011	0          	0          	0          	4.37868e-011	0.310708   	-0.310104  	0          	
0.5628     	2.177e-012 	4.77867e-011	0          	0          	0          	4.56489e-011	0.307952   	-0.307313  	0          	
0.5712     	2.30451e-012	4.97886e-011	0          	0          	0          	4.75581e-011	0.305203   	-0.304528  	0          	
0.5796     	2.43736e-012	5.18409e-011	0          	0          	0          	4.95146e-011	0.302461   	-0.301749  	0          	
0.588      	2.57567e-012	5.39439e-011	0          	0          	0          	5.15188e-011	0.299726   	-0.298975  	0          	
0.5964     	2.71957e-012	5.60979e-011	0          	0          	0          	5.35708e-011	0.296998   	-0.296206  	0          	
0.6048     	2.86921e-012	5.83033e-011	0          	0          	0          	5.56709e-011	0.294278   	-0.293444  	0          	
0.6132     	3.02472e-012	6.05602e-011	0          	0          	0          	5.78194e-011	0.291565   	-0.290688  	0          	
0.6216     	3.18623e-012	6.2869e-011	0          	0          	0          	6.00164e-011	0.28886    	-0.287937  	0          	
0.63       	3.35387e-012	6.523e-011 	0          	0          	0          	6.22621e-011	0.286162   	-0.285192  	0          	
0.6384     	3.52779e-012	6.76435e-011	0          	0          	0          	6.45568e-011	0.283472   	-0.282454  	0          	
0.6468     	3.70811e-012	7.01095e-011	0          	0          	0          	6.69006e-011	0.280789   	-0.279722  	0          	
0.6552     	3.89498e-012	7.26285e-011	0          	0          	0          	6.92936e-011	0.278115   	-0.276995  	0          	
0.6636     	4.08854e-012	7.52006e-011	0          	0          	0          	7.17361e-011	0.275449   	-0.274275  	0          	
0.672      	4.28892e-012	7.7826e-011	0          	0          	0          	7.42281e-011	0.27279    	-0.271562  	0          	
0.6804     	4.49626e-012	8.05049e-011	0          	0          	0          	7.67698e-011	0.27014    	-0.268855  	0          	
0.6888     	4.7107e-012	8.32374e-011	0          	0          	0          	7.93613e-011	0.267498   	-0.266154  	0          	
0.6972     	4.93238e-012	8.60238e-011	0          	0          	0          	8.20026e-011	0.264865   	-0.26346   	0          	
0.7056     	5.16144e-012	8.88642e-011	0          	0          	0          	8.46939e-011	0.26224    	-0.260772  	0          	
0.714      	5.39802e-012	9.17587e-011	0          	0          	0          	8.74352e-011	0.259623   	-0.258091  	0          	
0.7224     	5.64225e-012	9.47075e-011	0          	0          	0          	9.02265e-011	0.257015   	-0.255417  	0          	
0.7308     	5.89428e-012	9.77106e-011	0          	0          	0          	9.3068e-011	0.254416   	-0.252749  	0          	
0.7392     	6.15425e-012	1.00768e-010	0          	0          	0          	9.59596e-011	0.251825   	-0.250088  	0          	
0.7476     	6.42229e-012	1.0388e-010	0          	0          	0          	9.89013e-011	0.249244   	-0.247434  	0          	
0.756      	6.69855e-012	1.07047e-010	0          	0          	0          	1.01893e-010	0.246671   	-0.244787  	0          	
0.7644     	6.98317e-012	1.10268e-010	0          	0          	0          	1.04935e-010	0.244108   	-0.242148  	0          	
0.7728     	7.27628e-012	1.13545e-010	0          	0          	0          	1.08027e-010	0.241553   	-0.239515  	0          	
0.7812     	7.57803e-012	1.16875e-010	0          	0          	0          	1.11169e-010	0.239008   	-0.236889  	0          	
0.7896     	7.88856e-012	1.20261e-010	0          	0          	0          	1.14362e-010	0.236472   	-0.23427   	0          	
0.798      	8.20801e-012	1.23701e-010	0          	0          	0          	1.17604e-010	0.233946   	-0.231659  	0          	
0.8064     	8.53651e-012	1.27197e-010	0          	0          	0          	1.20896e-010	0.231429   	-0.229055  	0          	
0.8148     	8.87421e-012	1.30746e-010	0          	0          	0          	1.24237e-010	0.228921   	-0.226458  	0          	
0.8232     	9.22124e-012	1.34351e-010	0          	0          	0          	1.27629e-010	0.226424   	-0.223868  	0          	
0.8316     	9.57775e-012	1.3801e-010	0          	0          	0          	1.3107e-010	0.223936   	-0.221286  	0          	
0.84       	9.94386e-012	1.41724e-010	0          	0          	0          	1.3456e-010	0.221457   	-0.218712  	0          	
0.8484     	1.03197e-011	1.45492e-010	0          	0          	0          	1.38099e-010	0.218989   	-0.216145  	0          	
0.8568     	1.07055e-011	1.49315e-010	0          	0          	0          	1.41688e-010	0.21653    	-0.213586  	0          	
0.8652     	1.11013e-011	1.53192e-010	0          	0          	0          	1.45326e-010	0.214082   	-0.211034  	0          	
0.8736     	1.15072e-011	1.57123e-010	0          	0          	0          	1.49012e-010	0.211643   	-0.20849   	0          	
0.882      	1.19234e-011	1.61109e-010	0          	0          	0          	1.52747e-010	0.209215   	-0.205954  	0          	
0.8904     	1.23501e-011	1.65148e-010	0          	0          	0          	1.5653e-010	0.206797   	-0.203425  	0          	
0.8988     	1.27873e-011	1.69241e-010	0          	0          	0          	1.60361e-010	0.204389   	-0.200904  	0          	
0.9072     	1.32353e-011	1.73387e-010	0          	0          	0          	1.6424e-010	0.201992   	-0.198392  	0          	
0.9156     	1.3694e-011	1.77587e-010	0          	0          	0          	1.68166e-010	0.199605   	-0.195887  	0          	
0.924      	1.41638e-011	1.81841e-010	0          	0          	0          	1.7214e-010	0.197228   	-0.19339   	0          	
0.9324     	1.46446e-011	1.86147e-010	0          	0          	0          	1.76161e-010	0.194862   	-0.190901  	0          	
0.9408     	1.51367e-011	1.90506e-010	0          	0          	0          	1.80229e-010	0.192507   	-0.18842   	0          	
0.9492     	1.56401e-011	1.94917e-010	0          	0          	0          	1.84343e-010	0.190162   	-0.185948  	0          	
0.9576     	1.6155e-011	1.99381e-010	0          	0          	0          	1.88503e-010	0.187829   	-0.183483  	0          	
0.966      	1.66816e-011	2.03897e-010	0          	0          	0          	1.92709e-010	0.185506   	-0.181027  	0          	
0.9744     	1.72199e-011	2.08465e-010	0          	0          	0          	1.96961e-010	0.183193   	-0.178579  	0          	
0.9828     	1.777e-011 	2.13084e-010	0          	0          	0          	2.01257e-010	0.180892   	-0.176139  	0          	
0.9912     	1.83322e-011	2.17754e-010	0          	0          	0          	2.05598e-010	0.178602   	-0.173708  	0          	
0.9996     	1.89065e-011	2.22475e-010	0          	0          	0          	2.09984e-010	0.176323   	-0.171285  	0          	
1.008      	1.94931e-011	2.27247e-010	0          	0          	0          	2.14414e-010	0.174055   	-0.16887   	0          	
1.0164     	2.0092e-011	2.32069e-010	0          	0          	0          	2.18887e-010	0.171798   	-0.166464  	0          	
1.0248     	2.07034e-011	2.3694e-010	0          	0          	0          	2.23403e-010	0.169552   	-0.164066  	0          	
1.0332     	2.13274e-011	2.41861e-010	0          	0          	0          	2.27962e-010	0.167318   	-0.161677  	0          	
1.0416     	2.19642e-011	2.46832e-010	0          	0          	0          	2.32563e-010	0.165095   	-0.159296  	0          	
1.05       	2.26138e-011	2.51851e-010	0          	0          	0          	2.37206e-010	0.162883   	-0.156924  	0          	
1.0584     	2.32764e-011	2.56918e-010	0          	0          	0          	2.4189e-010	0.160683   	-0.154561  	0          	
1.0668     	2.39521e-011	2.62033e-010	0          	0          	0          	2.46615e-010	0.158494   	-0.152206  	0          	
1.0752     	2.46409e-011	2.67195e-010	0          	0          	0          	2.5138e-010	0.156317   	-0.14986   	0          	
1.0836     	2.53431e-011	2.72405e-010	0          	0          	0          	2.56185e-010	0.154152   	-0.147523  	0          	
1.092      	2.60587e-011	2.77661e-010	0          	0          	0          	2.6103e-010	0.151998   	-0.145194  	0          	
1.1004     	2.67878e-011	2.82963e-010	0          	0          	0          	2.65913e-010	0.149855   	-0.142875  	0          	
1.1088     	2.75306e-011	2.88311e-010	0          	0          	0          	2.70834e-010	0.147725   	-0.140564  	0          	
1.1172     	2.82871e-011	2.93703e-010	0          	0          	0          	2.75794e-010	0.145606   	-0.138262  	0          	
1.1256     	2.90575e-011	2.99141e-010	0          	0          	0          	2.8079e-010	0.143499   	-0.135969  	0          	
1.134      	2.98418e-011	3.04622e-010	0          	0          	0          	2.85823e-010	0.141403   	-0.133685  	0          	
1.1424     	3.06402e-011	3.10147e-010	0          	0          	0          	2.90892e-010	0.13932    	-0.131409  	0          	
1.1508     	3.14528e-011	3.15715e-010	0          	0          	0          	2.95996e-010	0.137249   	-0.129143  	0          	
1.1592     	3.22796e-011	3.21326e-010	0          	0          	0          	3.01135e-010	0.135189   	-0.126886  	0          	
1.1676     	3.31207e-011	3.26978e-010	0          	0          	0          	3.06308e-010	0.133142   	-0.124638  	0          	
1.176      	3.39764e-011	3.32672e-010	0          	0          	0          	3.11515e-010	0.131106   	-0.122399  	0          	
1.1844     	3.48465e-011	3.38406e-010	0          	0          	0          	3.16754e-010	0.129083   	-0.120168  	0          	
1.1928     	3.57313e-011	3.44181e-010	0          	0          	0          	3.22026e-010	0.127071   	-0.117948  	0          	
1.2012     	3.66308e-011	3.49995e-010	0          	0          	0          	3.2733e-010	0.125072   	-0.115736  	0          	
1.2096     	3.75451e-011	3.55848e-010	0          	0          	0          	3.32664e-010	0.123085   	-0.113533  	0          	
1.218      	3.84744e-011	3.61739e-010	0          	0          	0          	3.38028e-010	0.12111    	-0.11134   	0          	
1.2264     	3.94186e-011	3.67668e-010	0          	0          	0          	3.43422e-010	0.119147   	-0.109155  	0          	
1.2348     	4.03779e-011	3.73634e-010	0          	0          	0          	3.48845e-010	0.117197   	-0.10698   	0          	
1.2432     	4.13523e-011	3.79637e-010	0          	0          	0          	3.54296e-010	0.115259   	-0.104814  	0          	
1.2516     	4.23419e-011	3.85675e-010	0          	0          	0          	3.59774e-010	0.113333   	-0.102658  	0          	
1.26       	4.33469e-011	3.91748e-010	0          	0          	0          	3.65279e-010	0.111419   	-0.10051   	0          	
1.2684     	4.43672e-011	3.97855e-010	0          	0          	0          	3.7081e-010	0.109518   	-0.0983723 	0          	
1.2768     	4.5403e-011	4.03995e-010	0          	0          	0          	3.76366e-010	0.107628   	-0.0962436 	0          	
1.2852     	4.64543e-011	4.10169e-010	0          	0          	0          	3.81947e-010	0.105752   	-0.0941242 	0          	
1.2936     	4.75212e-011	4.16375e-010	0          	0          	0          	3.87551e-010	0.103888   	-0.0920141 	0          	
1.302      	4.86037e-011	4.22612e-010	0          	0          	0          	3.93178e-010	0.102036   	-0.0899135 	0          	
1.3104     	4.9702e-011	4.2888e-010	0          	0          	0          	3.98827e-010	0.100196   	-0.0878221 	0          	
1.3188     	5.0816e-011	4.35177e-010	0          	0          	0          	4.04497e-010	0.0983691  	-0.0857402 	0          	
1.3272     	5.19459e-011	4.41504e-010	0          	0          	0          	4.10188e-010	0.0965545  	-0.0836678 	0          	
1.3356     	5.30917e-011	4.47859e-010	0          	0          	0          	4.15898e-010	0.0947524  	-0.0816047 	0          	
