T          	Er(t)      	Ephi(t)    	Ez(t)      	Hr(t)      	Hphi(t)    	Hz(t)      	Jr(t)      	Jphi(t)    	Jz(t)      
0          	0          	0          	0          	0          	0          	0          	0.478562   	-0.478562  	0          	
0.06125    	0          	0          	0          	0          	0          	0          	0.457146   	-0.457146  	0          	
0.1225     	0          	1.99271e-013	0          	8.71041e-021	9.01077e-021	9.96354e-014	0.435793   	-0.435791  	-4.56416e-012	
0.18375    	1.66059e-015	1.08151e-012	-4.65056e-021	4.71966e-020	4.86827e-020	6.14622e-013	0.414546   	-0.414533  	-1.7777e-011	
0.245      	1.19043e-014	3.35259e-012	-2.85771e-020	1.45993e-019	1.50082e-019	2.11264e-012	0.393445   	-0.393409  	-4.31901e-011	
0.30625    	4.71149e-014	7.78571e-012	-9.77861e-020	3.38141e-019	3.46369e-019	5.33015e-012	0.372533   	-0.372452  	-8.37784e-011	
0.3675     	1.35951e-013	1.50724e-011	-2.45507e-019	6.5256e-019	6.66092e-019	1.10165e-011	0.351851   	-0.351694  	-1.41906e-010	
0.42875    	3.1956e-013	2.57533e-011	-5.04898e-019	1.11102e-018	1.13043e-018	1.97973e-011	0.331439   	-0.331165  	-2.19304e-010	
0.49       	6.49515e-013	4.02355e-011	-9.03023e-019	1.72901e-018	1.75439e-018	3.21248e-011	0.311338   	-0.310894  	-3.17053e-010	
0.55125    	1.18493e-012	5.88464e-011	-1.45909e-018	2.5182e-018	2.54938e-018	4.83147e-011	0.291584   	-0.290908  	-4.35586e-010	
0.6125     	1.99017e-012	8.18661e-011	-2.18649e-018	3.48798e-018	3.52445e-018	6.86112e-011	0.272213   	-0.271233  	-5.74694e-010	
0.67375    	3.1337e-012	1.09515e-010	-3.09577e-018	4.64495e-018	4.68546e-018	9.32193e-011	0.25326    	-0.251893  	-7.33547e-010	
0.735      	4.68735e-012	1.41916e-010	-4.19562e-018	5.99132e-018	6.03333e-018	1.22283e-010	0.234757   	-0.232909  	-9.10733e-010	
0.79625    	6.72539e-012	1.79069e-010	-5.49147e-018	7.52382e-018	7.56307e-018	1.55839e-010	0.216732   	-0.214302  	-1.10432e-009	
0.8575     	9.32271e-012	2.20857e-010	-6.98336e-018	9.23402e-018	9.26436e-018	1.93793e-010	0.199211   	-0.196091  	-1.31193e-009	
0.91875    	1.25526e-011	2.67066e-010	-8.66504e-018	1.11095e-017	1.11228e-017	2.3593e-010	0.182218   	-0.178293  	-1.53088e-009	
0.98       	1.64848e-011	3.17411e-010	-1.05249e-017	1.31347e-017	1.31208e-017	2.81948e-010	0.165773   	-0.160922  	-1.75836e-009	
1.04125    	2.11839e-011	3.71532e-010	-1.25475e-017	1.52913e-017	1.52373e-017	3.31481e-010	0.149894   	-0.143992  	-1.99153e-009	
1.1025     	2.67086e-011	4.28983e-010	-1.47147e-017	1.75573e-017	1.74472e-017	3.841e-010 	0.134595   	-0.127518  	-2.22772e-009	
1.16375    	3.31102e-011	4.89228e-010	-1.70047e-017	1.99073e-017	1.97216e-017	4.39294e-010	0.119888   	-0.111511  	-2.4645e-009	
1.225      	4.04318e-011	5.51651e-010	-1.93918e-017	2.23127e-017	2.20284e-017	4.96464e-010	0.105781   	-0.0959832 	-2.69967e-009	
1.28625    	4.87062e-011	6.15579e-010	-2.1846e-017	2.4743e-017	2.43335e-017	5.54941e-010	0.0922815  	-0.0809463 	-2.93127e-009	
1.3475     	5.79552e-011	6.8031e-010	-2.43342e-017	2.71669e-017	2.66024e-017	6.14011e-010	0.0793937  	-0.0664105 	-3.15744e-009	
1.40875    	6.81887e-011	7.45114e-010	-2.68221e-017	2.95525e-017	2.87997e-017	6.72946e-010	0.0671196  	-0.0523851 	-3.37647e-009	
1.47       	7.94045e-011	8.09243e-010	-2.92746e-017	3.18678e-017	3.08901e-017	7.3101e-010	0.0554593  	-0.038878  	-3.5867e-009	
1.53125    	9.1588e-011	8.7194e-010	-3.16566e-017	3.40807e-017	3.28384e-017	7.87462e-010	0.0444107  	-0.0258956 	-3.78664e-009	
1.5925     	1.04712e-010	9.32453e-010	-3.39325e-017	3.61603e-017	3.46112e-017	8.4156e-010	0.0339698  	-0.0134433 	-3.97496e-009	
1.65375    	1.18738e-010	9.90075e-010	-3.60673e-017	3.80779e-017	3.61785e-017	8.92586e-010	0.0241309  	-0.00152553	-4.15052e-009	
1.715      	1.33615e-010	1.04417e-009	-3.80282e-017	3.98087e-017	3.7515e-017	9.39884e-010	0.0148866  	0.00985432 	-4.31234e-009	
1.77625    	1.4928e-010	1.09421e-009	-3.97862e-017	4.13327e-017	3.86018e-017	9.82896e-010	0.00622803 	0.0206939  	-4.45959e-009	
1.8375     	1.65661e-010	1.13977e-009	-4.13179e-017	4.26356e-017	3.94266e-017	1.02118e-009	-0.00185507	0.030992   	-4.59153e-009	
1.89875    	1.82681e-010	1.18059e-009	-4.26065e-017	4.37098e-017	3.99854e-017	1.05445e-009	-0.00937435	0.0407486  	-4.70755e-009	
1.96       	2.00255e-010	1.21655e-009	-4.36427e-017	4.45546e-017	4.02819e-017	1.08255e-009	-0.0163426 	0.049965   	-4.80716e-009	
2.02125    	2.18297e-010	1.24772e-009	-4.44247e-017	4.51764e-017	4.03275e-017	1.10548e-009	-0.0227738 	0.0586432  	-4.88999e-009	
2.0825     	2.36722e-010	1.27426e-009	-4.49583e-017	4.55874e-017	4.01385e-017	1.1234e-009	-0.0286828 	0.0667858  	-4.95584e-009	
2.14375    	2.55445e-010	1.29644e-009	-4.5256e-017	4.58026e-017	3.97325e-017	1.13659e-009	-0.0340855 	0.0743954  	-5.00455e-009	
2.205      	2.74389e-010	1.31451e-009	-4.53337e-017	4.5837e-017	3.91248e-017	1.14534e-009	-0.0389983 	0.0814743  	-5.03601e-009	
2.26625    	2.93478e-010	1.32868e-009	-4.5207e-017	4.57027e-017	3.83266e-017	1.14994e-009	-0.0434386 	0.0880237  	-5.05007e-009	
2.3275     	3.12643e-010	1.33906e-009	-4.48885e-017	4.54083e-017	3.73449e-017	1.15059e-009	-0.0474244 	0.094043   	-5.04648e-009	
2.38875    	3.3182e-010	1.3457e-009	-4.4386e-017	4.4959e-017	3.61854e-017	1.14741e-009	-0.0509743 	0.0995299  	-5.02487e-009	
2.45       	3.50943e-010	1.34865e-009	-4.37041e-017	4.43592e-017	3.48552e-017	1.14048e-009	-0.0541074 	0.104481   	-4.98469e-009	
2.51125    	3.69951e-010	1.34796e-009	-4.28473e-017	4.3615e-017	3.3365e-017	1.12985e-009	-0.0568437 	0.108894   	-4.92535e-009	
2.5725     	3.88782e-010	1.34376e-009	-4.18232e-017	4.27346e-017	3.17294e-017	1.11567e-009	-0.0592034 	0.112774   	-4.84642e-009	
2.63375    	4.07377e-010	1.33626e-009	-4.06433e-017	4.17292e-017	2.99648e-017	1.09812e-009	-0.0612069 	0.116141   	-4.74805e-009	
2.695      	4.25679e-010	1.32566e-009	-3.93222e-017	4.06106e-017	2.80869e-017	1.07745e-009	-0.0628751 	0.119033   	-4.63152e-009	
2.75625    	4.43636e-010	1.31217e-009	-3.78754e-017	3.93896e-017	2.61079e-017	1.0539e-009	-0.0642281 	0.121508   	-4.49971e-009	
2.8175     	4.61201e-010	1.29593e-009	-3.63161e-017	3.80746e-017	2.4037e-017	1.02767e-009	-0.0652853 	0.123642   	-4.35715e-009	
2.87875    	4.78329e-010	1.27705e-009	-3.46543e-017	3.66715e-017	2.18804e-017	9.98917e-010	-0.0660648 	0.125511   	-4.20961e-009	
2.94       	4.94978e-010	1.25557e-009	-3.28967e-017	3.51846e-017	1.96438e-017	9.67746e-010	-0.0665828 	0.127174   	-4.06287e-009	
3.00125    	5.11107e-010	1.23158e-009	-3.10483e-017	3.36181e-017	1.73321e-017	9.34238e-010	-0.0668544 	0.128652   	-3.92128e-009	
3.0625     	5.26677e-010	1.20511e-009	-2.91132e-017	3.19762e-017	1.49485e-017	8.98473e-010	-0.0668935 	0.129917   	-3.78641e-009	
3.12375    	5.41652e-010	1.17624e-009	-2.70946e-017	3.02624e-017	1.24905e-017	8.60529e-010	-0.0667142 	0.130894   	-3.65659e-009	
3.185      	5.55994e-010	1.14494e-009	-2.49926e-017	2.8478e-017	9.94953e-018	8.20455e-010	-0.0663317 	0.131489   	-3.52767e-009	
3.24625    	5.69668e-010	1.11116e-009	-2.28015e-017	2.66214e-017	7.31285e-018	7.78247e-010	-0.0657632 	0.131616   	-3.39476e-009	
3.3075     	5.82639e-010	1.07481e-009	-2.05102e-017	2.46906e-017	4.57289e-018	7.33855e-010	-0.065028  	0.131232   	-3.25418e-009	
3.36875    	5.9487e-010	1.03591e-009	-1.81078e-017	2.26884e-017	1.74099e-018	6.87264e-010	-0.0641465 	0.130348   	-3.10454e-009	
3.43       	6.06324e-010	9.94772e-010	-1.55943e-017	2.06302e-017	-1.13768e-018	6.38642e-010	-0.0631395 	0.129023   	-2.94622e-009	
3.49125    	6.16968e-010	9.52149e-010	-1.29955e-017	1.85505e-017	-3.97398e-018	5.88515e-010	-0.0620269 	0.127332   	-2.77963e-009	
3.5525     	6.26777e-010	9.09326e-010	-1.03764e-017	1.65057e-017	-6.63557e-018	5.37894e-010	-0.0608266 	0.125343   	-2.6032e-009	
3.61375    	6.35742e-010	8.68041e-010	-7.84678e-018	1.45703e-017	-8.96354e-018	4.88292e-010	-0.0595543 	0.123094   	-2.41284e-009	
3.675      	6.4388e-010	8.30209e-010	-5.55281e-018	1.28241e-017	-1.08064e-017	4.41545e-010	-0.0582244 	0.120603   	-2.20354e-009	
3.73625    	6.51239e-010	7.97446e-010	-3.65212e-018	1.13311e-017	-1.20671e-017	3.9944e-010	-0.0568501 	0.117885   	-1.9726e-009	
3.7975     	6.57897e-010	7.70476e-010	-2.27307e-018	1.01143e-017	-1.27509e-017	3.63176e-010	-0.0554443 	0.114974   	-1.72247e-009	
3.85875    	6.6395e-010	7.48564e-010	-1.46645e-018	9.13206e-018	-1.29945e-017	3.32778e-010	-0.0540187 	0.111926   	-1.46131e-009	
3.92       	6.69496e-010	7.29241e-010	-1.16542e-018	8.26802e-018	-1.30567e-017	3.06671e-010	-0.052584  	0.108801   	-1.20056e-009	
3.98125    	6.74607e-010	7.08545e-010	-1.17307e-018	7.34383e-018	-1.326e-017	2.81635e-010	-0.0511493 	0.105638   	-9.50616e-010	
4.0425     	6.79301e-010	6.81896e-010	-1.19396e-018	6.15903e-018	-1.38941e-017	2.53349e-010	-0.049722  	0.102435   	-7.1737e-010	
4.10375    	6.83523e-010	6.45462e-010	-9.10743e-019	4.55127e-018	-1.5116e-017	2.17504e-010	-0.0483087 	0.0991574  	-5.01676e-010	
4.165      	6.87148e-010	5.9759e-010	-8.47452e-020	2.45733e-018	-1.68943e-017	1.71228e-010	-0.046916  	0.095762   	-3.01852e-010	
4.22625    	6.90002e-010	5.3969e-010	1.36028e-018	-5.08944e-020	-1.90337e-017	1.14299e-010	-0.0455513 	0.0922252  	-1.1712e-010	
4.2875     	6.91907e-010	4.76069e-010	3.31523e-018	-2.7766e-018	-2.12787e-017	4.95775e-011	-0.0442224 	0.0885522  	5.08205e-011	
4.34875    	6.92733e-010	4.12623e-010	5.54542e-018	-5.45748e-018	-2.34507e-017	-1.76861e-011	-0.0429372 	0.0847649  	1.99453e-010	
4.41       	6.92439e-010	3.54807e-010	7.81314e-018	-7.8545e-018	-2.55421e-017	-8.15479e-011	-0.0417027 	0.0808788  	3.29041e-010	
4.47125    	6.9108e-010	3.05744e-010	1.00024e-017	-9.83239e-018	-2.77035e-017	-1.37426e-010	-0.0405254 	0.0768877  	4.45117e-010	
4.5325     	6.88789e-010	2.65368e-010	1.21721e-017	-1.13944e-017	-3.01165e-017	-1.83611e-010	-0.0394108 	0.0727706  	5.57476e-010	
4.59375    	6.85729e-010	2.31018e-010	1.44941e-017	-1.26543e-017	-3.28134e-017	-2.21502e-010	-0.0383647 	0.0685137  	6.7593e-010	
4.655      	6.82037e-010	1.99198e-010	1.70974e-017	-1.37603e-017	-3.55553e-017	-2.54439e-010	-0.0373928 	0.0641304  	8.0574e-010	
4.71625    	6.77797e-010	1.67551e-010	1.99039e-017	-1.48119e-017	-3.78616e-017	-2.85724e-010	-0.0365006 	0.0596616  	9.46045e-010	
4.7775     	6.73034e-010	1.35952e-010	2.25645e-017	-1.58171e-017	-3.92025e-017	-3.16911e-010	-0.0356929 	0.0551569  	1.09234e-009	
4.83875    	6.67753e-010	1.06111e-010	2.45593e-017	-1.67121e-017	-3.92639e-017	-3.47298e-010	-0.0349729 	0.0506502  	1.24081e-009	
4.9        	6.61964e-010	7.99559e-011	2.54301e-017	-1.74316e-017	-3.81319e-017	-3.74895e-010	-0.0343426 	0.0461514  	1.3909e-009	
4.96125    	6.55716e-010	5.78358e-011	2.5026e-017	-1.79814e-017	-3.62764e-017	-3.98245e-010	-0.0338029 	0.0416587  	1.544e-009 	
5.0225     	6.49079e-010	3.77327e-011	2.36118e-017	-1.84666e-017	-3.43241e-017	-4.17921e-010	-0.0333544 	0.0371815  	1.69951e-009	
5.08375    	6.42113e-010	1.60729e-011	2.17604e-017	-1.90507e-017	-3.27511e-017	-4.36693e-010	-0.0329977 	0.0327533  	1.85198e-009	
5.145      	6.34835e-010	-1.0314e-011	2.00769e-017	-1.98695e-017	-3.16811e-017	-4.58177e-010	-0.0327324 	0.028424   	1.99213e-009	
5.20625    	6.27199e-010	-4.23282e-011	1.8914e-017	-2.09536e-017	-3.09203e-017	-4.84776e-010	-0.0325571 	0.0242384  	2.11133e-009	
5.2675     	6.19119e-010	-7.80668e-011	1.82559e-017	-2.22115e-017	-3.0202e-017	-5.16234e-010	-0.0324693 	0.0202198  	2.20597e-009	
5.32875    	6.10515e-010	-1.14021e-010	1.78442e-017	-2.34857e-017	-2.9467e-017	-5.49791e-010	-0.0324649 	0.0163728  	2.27822e-009	
5.39       	6.01352e-010	-1.47233e-010	1.74568e-017	-2.46465e-017	-2.89711e-017	-5.81872e-010	-0.0325398 	0.0127025  	2.33253e-009	
5.45125    	5.91654e-010	-1.76971e-010	1.71415e-017	-2.56607e-017	-2.91274e-017	-6.10219e-010	-0.0326893 	0.00923257 	2.37099e-009	
5.5125     	5.81484e-010	-2.04776e-010	1.72264e-017	-2.6589e-017	-3.01846e-017	-6.35031e-010	-0.0329085 	0.00600601 	2.39168e-009	
5.57375    	5.709e-010 	-2.32888e-010	1.80853e-017	-2.75164e-017	-3.19733e-017	-6.58348e-010	-0.0331919 	0.00306734 	2.39125e-009	
5.635      	5.59928e-010	-2.62212e-010	1.98191e-017	-2.84679e-017	-3.39236e-017	-6.82154e-010	-0.0335325 	0.000442524	2.36926e-009	
5.69625    	5.48558e-010	-2.91318e-010	2.20892e-017	-2.9372e-017	-3.53627e-017	-7.06572e-010	-0.0339227 	-0.00186636	2.33031e-009	
5.7575     	5.36782e-010	-3.17253e-010	2.42462e-017	-3.01015e-017	-3.58949e-017	-7.29498e-010	-0.0343543 	-0.00386746	2.28151e-009	
5.81875    	5.24624e-010	-3.37536e-010	2.56825e-017	-3.05601e-017	-3.55912e-017	-7.47949e-010	-0.0348191 	-0.00555988	2.22767e-009	
5.88       	5.12158e-010	-3.51861e-010	2.61675e-017	-3.07501e-017	-3.48479e-017	-7.60116e-010	-0.0353092 	-0.00692686	2.16821e-009	
5.94125    	4.99489e-010	-3.62166e-010	2.5923e-017	-3.07685e-017	-3.40225e-017	-7.66589e-010	-0.0358166 	-0.00794785	2.09869e-009	
6.0025     	4.86713e-010	-3.71019e-010	2.53827e-017	-3.07325e-017	-3.31286e-017	-7.69784e-010	-0.036333  	-0.00861862	2.01556e-009	
6.06375    	4.73883e-010	-3.79541e-010	2.48172e-017	-3.06913e-017	-3.1833e-017	-7.72002e-010	-0.0368495 	-0.00896085	1.91985e-009	
6.125      	4.61017e-010	-3.86466e-010	2.41164e-017	-3.05921e-017	-2.97606e-017	-7.736e-010	-0.0373578 	-0.00901266	1.81652e-009	
6.18625    	4.48123e-010	-3.89088e-010	2.29009e-017	-3.0325e-017	-2.68647e-017	-7.72683e-010	-0.03785   	-0.00880875	1.71013e-009	
6.2475     	4.35245e-010	-3.85329e-010	2.08786e-017	-2.98128e-017	-2.35558e-017	-7.66555e-010	-0.0383192 	-0.00836835	1.60098e-009	
6.30875    	4.22469e-010	-3.75311e-010	1.81586e-017	-2.90722e-017	-2.04677e-017	-7.53802e-010	-0.0387596 	-0.00770126	1.4855e-009	
6.37       	4.09906e-010	-3.6117e-010	1.52596e-017	-2.81998e-017	-1.80308e-017	-7.35357e-010	-0.0391657 	-0.00682551	1.3605e-009	
6.43125    	3.9765e-010	-3.45294e-010	1.27855e-017	-2.72927e-017	-1.61913e-017	-7.1371e-010	-0.0395322 	-0.00577884	1.22748e-009	
6.4925     	3.85755e-010	-3.28419e-010	1.10158e-017	-2.63715e-017	-1.45029e-017	-6.90928e-010	-0.0398548 	-0.00461265	1.09286e-009	
6.55375    	3.74239e-010	-3.09154e-010	9.73492e-018	-2.53671e-017	-1.2522e-017	-6.67079e-010	-0.0401298 	-0.00337296	9.63921e-010	
6.615      	3.63121e-010	-2.85317e-010	8.44249e-018	-2.41845e-017	-1.01831e-017	-6.40369e-010	-0.0403552 	-0.00208571	8.44065e-010	
6.67625    	3.52448e-010	-2.55976e-010	6.77863e-018	-2.2789e-017	-7.84513e-018	-6.08853e-010	-0.0405298 	-0.000758973	7.31784e-010	
6.7375     	3.42301e-010	-2.22509e-010	4.81775e-018	-2.12458e-017	-5.96871e-018	-5.72332e-010	-0.0406529 	0.000600898	6.24186e-010	
6.79875    	3.32762e-010	-1.87791e-010	2.98886e-018	-1.96784e-017	-4.69871e-018	-5.32844e-010	-0.0407242 	0.00197525 	5.21582e-010	
6.86       	3.23881e-010	-1.54204e-010	1.68918e-018	-1.81821e-017	-3.71143e-018	-4.93364e-010	-0.0407435 	0.0033347  	4.28693e-010	
6.92125    	3.15659e-010	-1.2213e-010	9.18537e-019	-1.67648e-017	-2.46704e-018	-4.55782e-010	-0.0407111 	0.00465456 	3.51215e-010	
6.9825     	3.08062e-010	-9.0192e-011	2.51008e-019	-1.53646e-017	-6.61286e-019	-4.19854e-010	-0.0406281 	0.0059289  	2.90961e-010	
7.04375    	3.01065e-010	-5.6987e-011	-8.21739e-019	-1.39268e-017	1.50696e-018	-3.83982e-010	-0.0404962 	0.00716939 	2.44221e-010	
7.105      	2.94665e-010	-2.28271e-011	-2.45977e-018	-1.24746e-017	3.48603e-018	-3.47132e-010	-0.0403171 	0.00838943 	2.04932e-010	
7.16625    	2.88879e-010	1.00447e-011	-4.32398e-018	-1.11098e-017	4.81706e-018	-3.1022e-010	-0.0400922 	0.00958828 	1.69715e-010	
7.2275     	2.83709e-010	3.89478e-011	-5.84008e-018	-9.94378e-018	5.49499e-018	-2.75789e-010	-0.0398227 	0.0107495  	1.40053e-010	
7.28875    	2.79113e-010	6.26911e-011	-6.65811e-018	-9.01689e-018	5.93351e-018	-2.46212e-010	-0.03951   	0.0118544  	1.19622e-010	
7.35       	2.75009e-010	8.22785e-011	-6.916e-018	-8.27596e-018	6.56546e-018	-2.21994e-010	-0.039156  	0.0128969  	1.09475e-010	
7.41125    	2.71309e-010	9.98023e-011	-7.08059e-018	-7.62798e-018	7.43062e-018	-2.01592e-010	-0.0387629 	0.0138857  	1.05842e-010	
7.4725     	2.67949e-010	1.1651e-010	-7.50513e-018	-7.02277e-018	8.11858e-018	-1.82914e-010	-0.0383332 	0.0148309  	1.02754e-010	
7.53375    	2.64901e-010	1.31739e-010	-8.09262e-018	-6.49196e-018	8.12373e-018	-1.6516e-010	-0.037869  	0.0157298  	9.70543e-011	
7.595      	2.62148e-010	1.43646e-010	-8.36558e-018	-6.11089e-018	7.30291e-018	-1.49413e-010	-0.0373724 	0.0165648  	9.09604e-011	
7.65625    	2.59658e-010	1.51055e-010	-7.88713e-018	-5.91851e-018	6.0287e-018	-1.3748e-010	-0.0368455 	0.0173161  	8.97245e-011	
7.7175     	2.57366e-010	1.54762e-010	-6.66475e-018	-5.86752e-018	4.89628e-018	-1.30031e-010	-0.0362909 	0.0179772  	9.66255e-011	
7.77875    	2.55199e-010	1.57133e-010	-5.17656e-018	-5.85017e-018	4.23839e-018	-1.25704e-010	-0.0357118 	0.018558   	1.1012e-010	
7.84       	2.53104e-010	1.60313e-010	-3.98999e-018	-5.77766e-018	3.8774e-018	-1.2199e-010	-0.0351112 	0.0190728  	1.25846e-010	
7.90125    	2.51071e-010	1.64644e-010	-3.30517e-018	-5.64343e-018	3.335e-018 	-1.17123e-010	-0.0344919 	0.019526   	1.41423e-010	
7.9625     	2.49119e-010	1.68657e-010	-2.82617e-018	-5.51512e-018	2.30983e-018	-1.11334e-010	-0.0338564 	0.0199082  	1.59273e-010	
8.02375    	2.47263e-010	1.7062e-010	-2.07407e-018	-5.46389e-018	9.89941e-019	-1.06365e-010	-0.0332072 	0.0202076  	1.84587e-010	
8.085      	2.45491e-010	1.70227e-010	-8.59906e-019	-5.4954e-018	-8.73198e-020	-1.03718e-010	-0.0325468 	0.0204238  	2.20373e-010	
8.14625    	2.43762e-010	1.68908e-010	5.10634e-019	-5.54454e-018	-5.05566e-019	-1.0322e-010	-0.0318782 	0.0205719  	2.64381e-010	
8.2075     	2.42042e-010	1.68504e-010	1.49017e-018	-5.5374e-018	-3.4477e-019	-1.03175e-010	-0.0312041 	0.0206715  	3.10915e-010	
8.26875    	2.40322e-010	1.69531e-010	1.77554e-018	-5.46287e-018	-1.17822e-019	-1.01949e-010	-0.0305269 	0.0207312  	3.55789e-010	
8.33       	2.38623e-010	1.70646e-010	1.58709e-018	-5.3877e-018	-3.21379e-019	-9.95157e-011	-0.0298484 	0.020745   	3.99594e-010	
8.39125    	2.36964e-010	1.6979e-010	1.48437e-018	-5.40037e-018	-1.00704e-018	-9.75487e-011	-0.0291703 	0.0207019  	4.46148e-010	
8.4525     	2.35339e-010	1.66001e-010	1.88056e-018	-5.53467e-018	-1.76311e-018	-9.79674e-011	-0.0284946 	0.0206001  	4.97729e-010	
8.51375    	2.33706e-010	1.60235e-010	2.69398e-018	-5.7418e-018	-2.12255e-018	-1.01243e-010	-0.0278233 	0.0204519  	5.51859e-010	
8.575      	2.32018e-010	1.54478e-010	3.45302e-018	-5.93588e-018	-2.02035e-018	-1.06e-010 	-0.0271584 	0.0202733  	6.02888e-010	
8.63625    	2.30252e-010	1.49965e-010	3.75742e-018	-6.07054e-018	-1.87548e-018	-1.10257e-010	-0.0265016 	0.0200709  	6.46868e-010	
8.6975     	2.28414e-010	1.46146e-010	3.67087e-018	-6.17629e-018	-2.21747e-018	-1.13166e-010	-0.0258541 	0.0198371  	6.84928e-010	
8.75875    	2.26528e-010	1.41332e-010	3.68066e-018	-6.32539e-018	-3.19967e-018	-1.15665e-010	-0.0252171 	0.0195594  	7.21857e-010	
8.82       	2.246e-010 	1.3439e-010	4.25726e-018	-6.55789e-018	-4.44965e-018	-1.19467e-010	-0.0245919 	0.0192347  	7.61269e-010	
8.88125    	2.22609e-010	1.25915e-010	5.41777e-018	-6.83803e-018	-5.39795e-018	-1.25342e-010	-0.0239799 	0.0188739  	8.02128e-010	
8.9425     	2.2052e-010	1.17786e-010	6.69739e-018	-7.08174e-018	-5.78296e-018	-1.32289e-010	-0.0233827 	0.0184929  	8.40023e-010	
9.00375    	2.18315e-010	1.11526e-010	7.55842e-018	-7.22939e-018	-5.86497e-018	-1.38357e-010	-0.0228014 	0.0180988  	8.71856e-010	
9.065      	2.16009e-010	1.06994e-010	7.86146e-018	-7.29646e-018	-6.15244e-018	-1.42347e-010	-0.0222367 	0.0176857  	8.99232e-010	
9.12625    	2.13637e-010	1.02609e-010	7.96452e-018	-7.35539e-018	-6.89855e-018	-1.44832e-010	-0.0216892 	0.017243   	9.27123e-010	
9.1875     	2.11223e-010	9.68828e-011	8.36003e-018	-7.46636e-018	-7.84226e-018	-1.47542e-010	-0.0211596 	0.0167695  	9.59103e-010	
9.24875    	2.08764e-010	8.98164e-011	9.1906e-018	-7.62207e-018	-8.4395e-018	-1.51719e-010	-0.0206488 	0.0162767  	9.93868e-010	
